75
145
140
138
139
144
145
136
132
138
153
164
168
167
166
162
153
146
143
145
144
141
141
137
134
138
144
150
153
152
149
75
150
153
155
151
145
141
140
141
147
151
152
149
142
137
136
137
140
143
148
155
162
167
165
160
152
144
138
132
133
139
75
147
154
164
172
174
151
126
124
136
145
151
152
150
149
157
161
165
166
161
157
151
145
143
140
139
140
142
146
146
146
75
151
156
162
160
153
139
131
127
128
133
143
153
155
152
145
138
140
147
154
157
155
153
148
144
143
144
149
159
167
169
75
165
157
146
136
129
126
128
137
147
158
163
159
152
146
142
140
141
146
148
151
154
155
151
149
147
144
144
147
149
149
75
151
148
143
141
146
155
156
138
126
137
149
157
156
155
152
147
142
143
148
152
154
157
164
163
157
151
147
140
135
134
75
139
150
161
166
167
164
159
153
144
139
136
134
133
134
139
147
157
162
161
154
150
146
144
140
147
151
151
146
139
134
75
135
135
136
140
148
155
158
155
152
150
150
149
147
145
147
152
155
155
149
145
137
130
133
141
149
156
162
162
157
153
75
148
147
146
147
149
134
120
129
140
152
159
162
161
156
148
143
140
133
129
134
143
148
151
155
159
158
153
143
140
149
75
156
159
157
157
155
149
144
139
141
140
140
140
142
144
146
152
159
163
158
152
149
146
142
140
142
144
147
147
148
149
75
151
153
155
159
164
165
159
153
145
142
141
142
146
151
159
163
163
157
151
147
140
136
136
138
140
132
130
199
254
241
75
179
137
127
115
104
113
132
142
142
149
160
163
157
148
139
128
119
120
130
144
154
159
154
149
146
142
139
140
142
142
75
143
143
141
143
144
144
147
153
153
148
145
146
150
150
148
144
142
145
147
146
146
144
144
148
153
160
160
159
155
148
75
144
141
140
144
147
146
145
145
144
144
143
138
136
139
144
146
152
152
150
150
148
146
145
146
146
146
148
150
149
152
75
166
176
159
133
131
144
154
160
163
161
155
151
148
143
142
147
149
151
153
152
148
140
135
135
136
138
143
150
157
161
75
166
165
160
152
144
135
129
125
126
132
143
154
160
163
164
158
148
142
142
142
144
145
147
149
152
149
146
146
143
140
75
142
145
146
149
150
150
154
160
160
162
160
159
155
147
141
140
138
136
140
143
147
152
155
153
157
155
150
147
148
156
75
157
135
125
133
152
162
162
157
153
147
142
143
144
148
151
157
161
161
158
152
143
133
127
128
133
142
149
160
168
172
75
169
159
148
141
138
135
134
136
138
143
147
150
153
153
153
147
146
146
143
144
148
151
150
152
155
158
155
151
146
142
75
139
140
140
139
142
146
148
151
153
156
160
160
155
145
138
135
135
137
142
146
150
152
155
159
157
148
144
145
153
161
75
164
142
123
127
138
149
150
147
149
151
151
152
153
153
152
152
151
152
151
150
149
149
147
143
143
148
152
159
162
157
75
155
150
144
139
137
138
139
142
143
146
150
151
147
146
145
142
139
138
140
144
149
151
155
160
157
151
148
148
149
147
75
146
149
151
150
149
146
146
146
146
149
150
150
151
150
145
142
142
145
145
145
147
151
155
157
156
154
148
145
142
140
75
138
142
154
162
148
133
140
157
163
163
158
151
148
145
142
138
135
137
141
145
153
162
165
163
158
149
139
135
131
133
75
139
152
159
161
161
157
154
149
145
142
140
140
139
136
138
141
147
152
155
156
158
155
153
140
133
136
146
157
160
160
75
160
156
150
145
145
142
144
147
144
140
139
140
145
149
151
156
160
160
157
154
151
149
144
138
137
140
142
145
146
150
75
153
156
159
169
172
148
128
130
138
145
146
152
155
149
141
140
143
148
157
160
161
161
157
152
150
147
147
146
145
149
75
151
151
153
153
153
153
150
143
136
133
132
134
141
145
143
138
136
143
151
151
154
156
157
157
154
152
147
142
136
136
75
140
144
145
143
145
145
147
147
151
150
149
150
154
158
161
157
151
147
143
140
143
145
145
146
147
153
157
157
159
156
75
149
142
135
133
142
164
171
150
133
134
148
155
153
149
145
144
147
150
151
150
148
145
145
142
144
144
144
143
142
145
75
146
145
147
150
155
155
153
153
152
150
149
155
165
172
177
175
171
160
144
138
132
125
119
126
141
129
118
123
132
141
75
148
153
159
163
164
163
155
146
136
133
137
140
144
152
160
161
162
158
152
149
147
144
144
147
149
153
153
152
149
146
75
144
142
136
139
148
158
167
163
141
132
138
147
153
153
153
153
154
151
146
142
137
138
144
145
148
151
153
151
149
147
75
144
140
135
136
143
152
159
159
156
153
152
155
155
152
152
146
143
140
139
143
146
147
147
149
148
149
149
146
145
145
75
143
140
142
147
152
159
159
157
155
154
153
151
148
144
145
145
147
150
149
150
151
152
147
147
146
148
148
148
146
146
75
147
147
143
143
146
150
159
171
170
144
125
127
138
145
147
150
153
151
148
150
150
150
149
148
148
152
154
156
154
149
75
147
146
148
152
156
158
156
153
148
139
132
132
135
138
137
140
145
148
152
157
159
158
156
153
149
140
134
134
138
145
75
151
154
158
158
155
153
148
146
144
142
143
144
145
145
148
149
149
150
152
150
149
150
151
148
145
143
144
149
150
148
75
149
150
145
144
149
156
166
156
129
124
138
149
153
153
154
149
140
138
137
143
150
157
162
166
166
161
154
150
145
141
75
140
137
140
144
145
145
147
148
150
152
151
148
146
143
144
143
148
153
157
159
158
154
148
138
132
132
138
143
146
149
75
154
153
154
155
154
153
151
149
145
142
143
146
150
150
151
150
148
148
147
145
145
149
151
148
151
151
152
152
153
154
75
153
151
147
147
155
156
136
119
132
150
161
161
157
154
151
147
143
142
143
146
146
147
149
155
158
157
151
144
138
137
75
139
141
145
145
146
150
148
147
147
148
146
147
148
150
150
148
149
150
147
147
146
148
146
142
142
144
146
148
153
156
75
155
152
150
150
152
152
150
148
145
144
144
144
147
148
151
149
149
148
148
149
145
144
146
147
148
147
150
151
147
148
75
148
148
146
146
150
155
161
151
128
128
140
152
158
157
154
152
148
148
146
147
148
150
152
155
157
156
153
149
145
142
75
141
143
145
147
153
160
162
155
148
141
136
137
141
145
150
152
150
145
147
148
147
147
153
153
151
147
144
140
137
141
75
145
149
153
156
158
156
154
150
144
140
141
143
142
141
142
144
145
146
145
148
152
154
154
151
151
153
154
149
149
147
75
148
149
147
147
146
146
147
154
174
203
220
196
165
145
129
117
115
120
127
131
133
136
132
134
141
146
152
156
157
157
75
155
139
128
125
127
130
139
147
148
141
133
135
146
158
166
165
162
155
150
146
143
143
145
148
148
146
149
151
153
153
75
147
147
149
152
154
151
150
154
153
156
156
150
145
141
141
141
149
160
170
175
167
153
140
131
130
138
154
177
186
179
75
166
151
143
138
130
130
137
143
148
149
147
147
146
136
114
113
131
145
159
165
166
161
147
133
130
134
144
152
158
163
75
159
154
145
141
140
140
144
159
162
160
156
150
147
148
145
139
137
137
137
143
143
144
145
138
138
146
149
153
153
152
75
152
149
149
151
154
153
153
150
146
146
149
156
161
162
160
151
146
145
143
142
141
145
144
141
143
147
147
150
151
153
75
155
152
149
146
145
130
107
121
147
160
164
163
164
158
159
175
187
162
117
95
102
118
136
153
160
160
155
151
153
154
75
153
153
155
157
163
163
158
150
141
133
128
132
140
146
159
176
176
171
163
161
163
158
155
152
148
135
123
118
111
94
75
99
129
161
173
172
169
162
158
154
154
158
158
155
149
143
140
138
137
134
131
134
144
150
156
160
155
148
144
148
152
75
150
147
146
143
143
147
150
151
155
156
150
147
146
145
145
149
152
151
153
153
150
154
161
158
132
118
130
148
155
161
75
162
154
150
147
148
144
138
139
145
151
152
150
149
152
152
147
143
140
140
143
146
153
158
157
154
151
148
150
152
152
75
152
151
149
145
142
143
141
142
140
139
141
143
144
147
148
149
156
165
165
161
154
142
135
137
146
148
148
145
140
138
75
139
142
148
153
156
158
157
152
144
141
143
143
144
146
148
149
147
146
146
149
151
151
152
154
157
156
150
144
140
142
75
147
155
163
160
137
124
132
148
157
158
156
152
152
150
148
147
146
144
143
144
143
140
139
139
139
137
137
137
139
144
75
145
145
147
154
160
161
158
150
144
141
140
143
148
147
150
154
153
148
147
149
150
153
153
151
150
149
148
151
153
154
75
159
164
163
158
150
142
138
134
133
138
144
149
153
159
158
161
160
156
148
147
146
143
142
141
142
144
148
153
155
156
75
153
153
152
149
151
149
148
149
146
145
154
166
171
154
135
133
141
147
148
149
145
143
142
140
141
144
148
151
154
155
75
153
146
143
139
138
140
143
146
146
146
150
152
152
153
153
151
145
144
145
146
148
146
147
148
153
153
152
152
150
147
75
145
145
147
143
144
147
152
153
157
158
154
153
154
150
147
143
141
138
137
141
146
149
148
151
153
151
151
149
147
145
75
142
138
140
144
150
152
150
148
149
149
149
147
145
145
147
151
155
160
169
161
134
122
133
146
151
153
154
152
150
147
75
142
144
145
149
153
157
158
157
153
151
146
141
138
136
136
137
140
144
147
150
153
166
178
176
167
153
144
142
143
145
75
144
145
149
155
156
151
146
146
143
145
144
142
146
147
146
147
147
150
155
158
156
152
150
146
146
144
145
143
142
138
75
139
143
149
153
154
154
155
152
147
144
144
142
143
147
152
154
153
153
151
149
147
149
156
162
150
127
123
135
145
149
75
149
151
151
149
153
154
153
153
152
151
150
148
150
151
151
144
141
138
136
139
140
149
155
157
156
152
152
147
140
141
75
141
142
146
148
149
146
144
146
151
156
158
157
157
154
147
145
145
150
148
145
145
149
150
146
142
141
144
148
153
156
75
154
152
148
139
136
129
130
139
151
163
166
166
162
154
145
138
137
139
139
140
143
149
153
154
159
167
169
151
126
125
75
138
147
150
153
151
152
152
148
148
149
149
148
146
149
153
152
148
145
143
140
141
142
146
150
151
148
152
151
150
147
75
147
147
150
154
159
156
150
151
149
146
144
144
140
139
140
143
144
148
150
152
151
149
147
149
151
151
151
151
151
150
75
150
148
144
146
148
150
148
148
149
148
145
150
152
149
141
138
136
139
144
147
150
153
152
148
149
157
162
159
139
123
75
130
142
148
152
154
151
149
146
147
150
151
154
155
154
154
151
150
149
145
142
138
132
134
140
145
149
151
150
150
150
75
146
145
145
147
152
149
142
145
149
150
150
149
147
147
145
149
153
155
156
161
165
168
166
162
155
148
137
129
125
127
75
131
137
141
141
144
152
162
166
164
158
145
141
143
144
141
143
147
151
155
156
160
163
160
154
146
142
146
140
117
107
75
123
146
160
163
162
161
160
157
154
150
143
140
139
142
145
150
153
153
149
140
137
138
141
145
151
156
155
157
152
150
75
150
154
158
158
158
151
145
137
134
136
139
146
149
153
156
153
146
142
140
142
142
147
151
150
150
150
148
144
138
139
75
136
137
141
145
149
150
153
158
160
161
163
163
171
172
165
150
138
131
129
130
130
135
145
152
158
165
162
132
114
124
75
140
152
160
165
165
161
156
150
145
139
136
140
147
153
159
155
151
148
141
135
134
140
151
162
165
162
157
151
145
138
75
134
135
139
143
148
154
158
159
156
155
152
153
152
150
150
150
148
143
140
138
135
137
140
145
150
156
159
160
158
152
75
144
141
138
138
143
148
153
157
158
155
147
141
138
127
125
132
142
154
160
165
167
161
153
154
158
147
122
120
131
146
75
155
154
154
150
147
145
149
149
150
152
154
157
156
147
142
142
143
141
139
138
140
140
145
148
150
149
149
148
147
147
75
147
143
140
140
148
144
142
140
140
144
153
157
163
166
169
168
165
159
148
131
120
119
126
135
146
161
173
178
177
168
75
159
147
135
127
132
137
145
150
159
159
158
156
150
138
128
123
126
133
143
151
155
157
152
147
149
156
157
135
118
121
75
133
142
144
148
152
154
152
149
150
154
152
142
143
148
164
192
218
232
228
206
163
116
83
67
69
74
82
102
127
151
75
164
169
166
160
157
152
149
148
150
151
149
144
138
136
137
137
140
141
141
147
154
166
189
193
185
175
166
156
146
143
75
140
136
135
137
145
151
152
158
159
161
163
161
158
155
151
149
141
133
137
145
150
158
163
162
162
162
171
204
234
285
75
299
299
299
299
170
0
0
0
0
0
10
60
107
138
150
152
152
149
155
151
147
299
299
192
71
33
47
81
112
137
75
144
145
146
147
148
148
148
148
148
147
298
299
299
299
299
299
299
299
299
299
299
299
299
299
299
296
244
196
168
157
75
154
154
154
154
154
153
153
152
152
151
151
151
151
151
150
150
150
150
150
150
150
150
150
150
150
150
150
150
149
149
75
149
149
149
149
149
149
149
149
149
149
149
149
149
149
149
149
149
149
149
149
149
149
149
149
149
149
149
149
149
149
75
149
148
149
149
149
149
149
149
149
149
149
149
149
149
148
149
149
149
149
149
149
149
149
149
149
149
149
149
149
149
75
149
148
148
149
149
149
149
149
149
149
149
149
149
149
148
148
149
149
149
149
149
148
149
148
149
148
149
148
149
149
75
148
148
148
149
149
149
149
149
148
148
148
148
148
148
148
148
148
149
148
148
148
148
148
148
148
148
148
148
148
148
75
148
148
148
148
148
148
148
148
148
148
148
148
149
149
149
149
148
148
148
148
148
148
148
148
148
148
148
148
148
148
75
148
148
148
149
149
149
148
148
148
148
148
148
148
148
148
148
148
148
148
148
148
148
148
148
148
148
148
148
148
148
75
148
148
148
148
149
149
89
0
0
0
0
0
0
260
299
299
299
140
0
0
1
35
75
106
126
140
147
149
148
148
75
148
147
147
0
0
0
0
0
0
0
0
0
0
0
0
0
0
27
80
117
134
140
141
141
141
142
142
143
143
144
75
144
144
145
145
145
145
145
191
188
0
0
0
0
0
0
0
0
0
0
144
299
299
299
299
299
299
299
299
299
299
75
299
299
299
298
192
97
92
128
0
0
0
0
0
0
0
0
0
0
0
1
49
98
127
237
299
299
299
299
299
299
75
299
299
299
299
299
299
299
214
110
36
0
0
35
107
146
159
156
153
156
176
213
232
218
183
112
64
56
86
134
163
75
196
219
230
241
233
230
227
213
209
185
171
154
147
160
167
280
299
299
284
201
93
0
0
0
58
142
193
214
220
204
75
199
187
172
169
154
155
152
152
156
150
160
162
164
172
160
145
119
114
127
132
152
150
128
120
130
156
166
177
182
169
75
170
164
161
163
150
156
148
135
134
126
135
127
114
106
106
134
148
186
223
200
157
96
71
93
114
138
148
163
183
175
75
180
175
173
175
157
149
135
134
148
141
148
181
203
200
166
143
108
90
106
119
163
254
299
280
204
151
120
107
102
88
75
88
88
125
172
190
207
198
177
158
132
128
123
118
118
108
118
120
132
157
173
198
192
161
134
116
126
130
137
150
160
75
171
160
156
163
159
163
163
154
149
137
146
160
174
184
169
168
158
149
135
99
82
77
96
132
151
174
171
157
149
138
75
149
150
144
141
128
134
152
210
222
174
144
131
136
148
148
156
142
122
112
106
127
137
146
154
156
176
175
172
168
151
75
150
143
141
145
137
143
141
147
152
149
163
157
148
147
132
114
87
102
135
146
169
180
199
211
196
181
156
135
121
107
75
126
134
142
147
136
138
127
128
140
143
162
173
184
193
179
168
148
135
133
126
138
143
146
148
140
145
138
135
139
134
75
149
151
151
153
142
146
145
150
151
141
147
141
141
148
148
160
156
153
159
155
165
168
165
161
161
172
162
153
149
139
75
142
136
133
130
115
114
109
121
148
160
186
187
166
135
109
113
118
122
134
128
135
133
143
156
131
109
100
116
134
139
75
155
186
224
233
198
165
125
110
125
130
132
109
106
123
141
181
194
200
206
205
211
193
173
150
122
125
121
122
128
123
75
120
120
137
162
177
193
188
177
166
136
122
115
121
134
142
158
167
188
198
177
157
143
162
190
184
182
165
166
164
138
75
126
128
136
143
135
127
98
97
115
126
143
149
158
157
144
144
135
135
141
137
142
133
134
143
141
150
142
146
156
150
75
157
149
144
151
154
164
158
149
137
119
127
131
139
147
143
149
146
156
166
161
160
147
132
127
124
145
157
166
166
158
75
161
140
133
135
134
147
155
165
166
154
156
146
144
148
141
143
138
144
154
152
156
142
136
133
123
128
127
139
155
144
75
133
130
153
169
169
168
138
121
118
119
138
148
176
201
202
199
168
150
155
165
184
181
178
170
151
148
134
126
120
112
75
124
124
136
152
155
167
170
180
183
169
160
146
144
141
131
133
121
120
126
129
147
148
152
155
144
148
141
146
147
134
75
136
132
139
151
158
171
163
166
164
146
146
138
132
131
127
139
142
146
152
150
168
173
181
168
127
113
110
122
137
151
75
174
173
175
178
171
171
154
146
140
131
142
142
146
148
139
148
143
144
149
147
155
149
150
151
143
152
148
150
154
150
75
156
149
145
142
131
137
134
139
147
145
155
144
142
144
139
147
146
153
160
154
160
150
149
149
139
144
139
144
151
146
75
150
146
152
158
153
157
148
145
149
145
153
148
152
153
143
149
143
149
158
153
145
126
134
152
155
164
153
154
155
148
75
165
163
156
149
138
146
146
150
146
134
140
130
130
133
128
139
141
151
153
146
157
156
157
155
148
156
151
153
145
132
75
141
143
155
160
154
157
148
146
144
138
146
146
154
159
151
160
148
145
145
141
149
145
149
153
147
152
144
145
148
143
75
146
141
147
151
145
140
130
139
154
151
158
150
149
148
139
149
147
152
159
159
172
162
133
110
108
137
151
162
166
157
75
157
148
150
146
136
147
142
149
157
156
165
159
161
158
146
147
140
146
149
147
153
142
139
136
131
144
143
150
155
152
75
158
152
153
152
147
154
145
144
148
140
141
138
148
154
150
160
149
148
147
135
141
135
137
148
154
169
167
169
166
158
75
161
151
149
140
130
137
130
133
133
134
152
153
157
156
146
150
144
151
152
145
151
144
144
146
148
161
133
114
120
140
75
166
167
170
166
152
156
145
138
129
124
141
150
168
169
158
156
144
148
145
133
144
145
156
163
155
156
140
137
144
141
75
153
145
150
154
148
152
138
145
153
150
160
152
149
144
137
149
147
153
153
145
152
144
146
152
150
163
154
153
151
145
75
150
143
158
165
160
165
152
149
144
135
140
133
143
148
144
156
146
146
143
132
143
140
153
157
146
149
139
144
153
163
75
177
146
135
140
139
151
141
146
150
143
152
147
162
183
186
193
164
143
128
114
124
114
121
136
139
154
146
152
152
142
75
142
124
121
122
124
143
141
157
165
161
173
163
168
170
163
172
156
153
150
140
150
137
136
135
133
150
147
154
158
147
75
149
132
138
140
136
148
133
137
136
133
147
143
153
155
150
162
151
155
152
136
146
145
154
156
148
159
154
165
171
155
75
139
112
122
143
150
165
156
162
157
148
163
156
158
151
136
140
130
137
142
142
155
150
163
158
141
142
126
136
149
136
75
124
113
136
157
163
173
161
160
156
160
182
173
171
165
139
132
108
103
114
127
155
158
163
157
161
179
178
178
157
118
75
114
115
140
165
173
179
162
158
154
138
132
120
148
164
157
154
137
133
123
110
130
152
181
184
163
149
108
107
115
125
75
172
194
202
180
143
123
99
111
122
125
165
189
203
193
161
135
112
123
140
145
160
159
171
166
153
161
152
157
151
134
75
135
127
138
144
139
146
131
139
151
149
158
146
158
162
156
160
144
139
122
99
109
119
147
163
167
179
162
147
129
123
75
142
137
149
152
152
167
162
165
160
154
166
156
158
152
143
152
144
153
152
142
151
138
141
155
162
165
134
135
145
151
75
164
150
153
151
145
154
143
149
155
156
164
148
148
140
131
143
138
147
149
147
157
147
153
155
145
148
129
131
128
127
75
143
140
152
156
154
164
157
160
157
149
153
134
130
127
129
149
144
152
156
153
159
132
125
122
122
143
148
164
162
141
75
144
133
142
142
141
158
156
167
167
159
170
166
173
162
150
157
145
149
148
140
151
156
171
157
138
154
156
164
151
135
75
148
142
154
162
157
159
142
146
144
138
152
154
175
193
182
164
129
120
115
112
126
121
134
137
125
105
61
77
114
139
75
170
167
177
184
188
200
190
186
168
148
147
152
192
200
179
167
138
132
130
126
135
124
128
129
132
142
135
147
151
148
75
156
145
153
152
150
158
148
151
142
132
136
126
137
144
150
162
153
163
169
162
148
117
124
142
154
167
153
157
151
140
75
139
127
136
137
137
152
151
167
168
159
157
139
149
152
150
157
146
157
153
146
150
133
138
138
139
155
150
155
150
144
75
149
138
145
144
145
155
141
136
120
107
119
127
158
159
151
161
156
161
155
151
154
138
147
157
163
175
166
179
182
178
75
176
150
145
130
118
125
120
129
130
131
148
147
163
167
166
176
157
144
130
128
151
149
154
142
130
135
133
148
147
146
75
161
154
161
152
141
144
133
140
130
126
147
151
170
173
170
171
151
150
142
139
147
134
143
142
138
146
146
158
159
154
75
161
149
164
165
161
163
146
148
142
137
145
135
143
143
139
150
142
148
144
141
152
150
159
151
144
147
137
143
146
146
75
157
146
150
150
152
166
154
151
143
140
149
139
148
153
155
155
127
136
149
153
161
147
149
143
137
146
139
147
147
143
75
151
138
141
137
130
137
133
153
162
159
166
157
167
161
154
154
136
138
142
149
163
149
153
148
145
152
134
129
124
131
75
153
155
165
163
158
158
140
143
143
147
159
148
152
144
134
139
130
138
137
131
139
139
155
152
137
140
147
197
239
236
75
217
170
141
117
118
130
122
126
122
118
127
134
154
152
147
150
119
98
87
96
123
125
132
110
98
95
96
139
172
194
75
209
187
170
155
153
169
162
161
141
122
125
133
171
200
228
250
232
223
195
162
150
129
129
123
118
133
132
151
164
171
75
200
194
192
171
156
150
140
141
115
89
89
91
114
138
163
176
157
147
129
121
131
132
148
149
145
150
143
156
157
153
75
158
142
139
130
118
121
124
151
167
173
177
157
146
130
130
149
154
150
135
136
153
151
155
151
153
159
147
150
146
144
75
152
144
155
155
149
153
145
151
150
147
155
150
160
156
148
151
139
144
141
140
149
140
144
143
146
155
144
148
141
143
75
158
158
164
157
151
151
142
150
147
145
147
139
144
142
141
146
141
148
147
147
156
155
168
169
163
162
145
145
135
128
75
134
130
140
139
140
144
132
133
132
134
147
150
162
167
171
181
178
194
196
161
133
121
137
141
138
142
133
138
136
132
75
132
123
137
131
126
146
161
177
176
168
169
157
157
147
145
149
140
141
136
135
143
139
147
156
161
168
161
160
154
147
75
140
124
126
129
139
153
153
163
163
159
158
149
151
146
141
148
154
171
171
156
154
144
143
140
139
142
139
150
146
142
75
149
142
146
136
124
123
122
134
141
142
149
150
162
171
178
191
188
172
140
128
142
148
158
151
146
147
140
140
133
128
75
131
122
125
131
148
169
178
188
192
193
182
153
140
129
120
115
95
80
81
99
127
134
163
192
201
201
181
171
170
173
75
176
160
151
133
127
136
140
151
149
144
146
146
159
159
152
148
138
142
142
141
148
139
140
141
146
155
145
137
128
131
75
148
147
151
170
196
227
224
198
152
106
95
104
117
106
106
134
154
185
201
194
178
152
151
138
127
111
80
72
80
106
75
139
147
154
146
141
150
152
158
151
148
158
156
160
161
157
162
154
155
148
143
141
134
140
144
152
164
164
166
158
145
75
134
123
138
152
166
165
139
131
125
124
134
141
160
169
178
182
171
172
168
163
162
149
149
142
139
155
161
161
152
145
75
153
165
185
168
141
145
144
139
112
115
141
141
136
112
105
121
132
153
160
158
159
149
149
142
140
150
152
159
163
161
75
159
144
137
110
86
97
119
144
148
143
154
170
195
199
187
173
151
138
124
122
131
128
146
169
188
200
188
181
167
155
75
152
139
135
128
127
130
126
135
135
134
136
132
142
144
144
161
169
186
192
180
174
156
137
116
115
136
173
201
194
163
75
141
111
100
107
109
142
203
260
258
222
191
151
119
103
99
101
86
100
118
132
139
119
113
113
126
154
161
167
151
123
75
99
49
52
99
153
200
219
232
222
204
193
173
165
152
143
151
147
144
132
128
133
123
126
132
136
141
135
136
139
147
75
163
170
181
183
181
182
165
158
148
150
163
148
122
111
122
141
143
152
157
162
168
159
155
146
141
148
142
146
144
140
75
145
140
147
148
144
151
165
190
181
156
137
119
118
113
108
111
110
128
145
154
167
167
173
168
162
162
151
146
137
135
75
141
140
150
153
154
159
154
160
153
143
145
139
140
136
132
140
138
150
163
166
173
167
173
163
151
152
151
151
141
136
75
139
129
137
140
142
150
151
150
125
114
133
141
143
139
140
147
147
149
143
141
153
150
154
150
152
157
147
144
147
154
75
164
149
147
147
150
161
156
158
153
146
147
141
145
140
143
166
170
171
164
155
153
145
145
133
131
142
140
150
149
147
75
149
140
145
144
144
146
139
139
133
133
146
151
161
157
151
157
156
161
157
153
156
144
143
140
139
148
155
163
156
149
75
151
144
146
143
144
151
141
146
145
142
151
152
161
164
169
168
132
116
119
133
150
152
160
158
153
152
143
147
145
150
75
160
153
157
155
150
153
141
141
142
144
150
144
142
138
134
141
140
151
152
153
161
157
161
159
153
150
138
139
140
139
75
147
143
152
154
153
158
153
160
162
157
154
148
152
142
131
133
131
143
148
151
167
166
172
171
157
150
146
162
165
158
75
157
146
147
137
125
123
112
102
89
82
82
93
129
172
232
257
233
208
179
152
141
128
131
128
123
117
102
99
92
95
75
122
143
169
180
183
184
173
207
233
218
199
175
159
139
139
168
184
186
156
118
102
96
111
112
105
104
100
113
120
121
